## Number of physical materials: 2 (0 - 1); ID for ghost/inactive cells: 2.
## Total volume of computational domain: 1.000000e-02.
## The last column is the sum over all material subdomains (including ghost/inactive).
       0    0.00000000e+00    5.00000000e-03    5.00000000e-03    0.00000000e+00    1.00000000e-02
       9    1.03400934e-03    5.10000000e-03    4.90000000e-03    0.00000000e+00    1.00000000e-02
      19    2.10042422e-03    5.25000000e-03    4.75000000e-03    0.00000000e+00    1.00000000e-02
      28    3.06363537e-03    5.40000000e-03    4.60000000e-03    0.00000000e+00    1.00000000e-02
      37    4.02799484e-03    5.50000000e-03    4.50000000e-03    0.00000000e+00    1.00000000e-02
      47    5.10029438e-03    5.65000000e-03    4.35000000e-03    0.00000000e+00    1.00000000e-02
      56    6.06583299e-03    5.75000000e-03    4.25000000e-03    0.00000000e+00    1.00000000e-02
      65    7.03166709e-03    5.90000000e-03    4.10000000e-03    0.00000000e+00    1.00000000e-02
      75    8.10497008e-03    6.05000000e-03    3.95000000e-03    0.00000000e+00    1.00000000e-02
      84    9.07104125e-03    6.15000000e-03    3.85000000e-03    0.00000000e+00    1.00000000e-02
      93    1.00372009e-02    6.30000000e-03    3.70000000e-03    0.00000000e+00    1.00000000e-02
     102    1.10034318e-02    6.40000000e-03    3.60000000e-03    0.00000000e+00    1.00000000e-02
     112    1.20771051e-02    6.55000000e-03    3.45000000e-03    0.00000000e+00    1.00000000e-02
     121    1.30434821e-02    6.70000000e-03    3.30000000e-03    0.00000000e+00    1.00000000e-02
     130    1.40099174e-02    6.80000000e-03    3.20000000e-03    0.00000000e+00    1.00000000e-02
     140    1.50000000e-02    6.95000000e-03    3.05000000e-03    0.00000000e+00    1.00000000e-02
