## One-Dimensional Riemann Problem.
## Initial State: 1.200000e-06 0.000000e+00 1.000000e+05, id 0 (left) | (right) 2.204000e-03 1.500000e+06 1.000000e+05, id 1.
## xi(x/t) | density | velocity | pressure | internal energy per mass | material id
-4.403137e+06     1.200000e-06     0.000000e+00     1.000000e+05     2.083333e+11     0
-3.415650e+05     1.200000e-06     0.000000e+00     1.000000e+05     2.083333e+11     0
-3.399229e+05     1.195200e-06     1.368451e+03     9.944045e+04     2.079996e+11     0
-3.369750e+05     1.186622e-06     3.825057e+03     9.844269e+04     2.074012e+11     0
-3.340033e+05     1.178024e-06     6.301471e+03     9.744558e+04     2.067988e+11     0
-3.310055e+05     1.169402e-06     8.799629e+03     9.644850e+04     2.061920e+11     0
-3.279811e+05     1.160754e-06     1.131995e+04     9.545145e+04     2.055807e+11     0
-3.249296e+05     1.152081e-06     1.386285e+04     9.445443e+04     2.049649e+11     0
-3.218505e+05     1.143382e-06     1.642879e+04     9.345745e+04     2.043444e+11     0
-3.187432e+05     1.134656e-06     1.901821e+04     9.246049e+04     2.037192e+11     0
-3.156071e+05     1.125904e-06     2.163159e+04     9.146357e+04     2.030892e+11     0
-3.124417e+05     1.117125e-06     2.426942e+04     9.046668e+04     2.024543e+11     0
-3.092464e+05     1.108318e-06     2.693218e+04     8.946982e+04     2.018144e+11     0
-3.060205e+05     1.099484e-06     2.962041e+04     8.847300e+04     2.011694e+11     0
-3.027635e+05     1.090622e-06     3.233462e+04     8.747622e+04     2.005192e+11     0
-2.994746e+05     1.081731e-06     3.507537e+04     8.647947e+04     1.998637e+11     0
-2.961531e+05     1.072811e-06     3.784323e+04     8.548276e+04     1.992028e+11     0
-2.927985e+05     1.063861e-06     4.063879e+04     8.448609e+04     1.985364e+11     0
-2.894099e+05     1.054882e-06     4.346265e+04     8.348946e+04     1.978645e+11     0
-2.859865e+05     1.045872e-06     4.631543e+04     8.249286e+04     1.971867e+11     0
-2.825277e+05     1.036832e-06     4.919779e+04     8.149631e+04     1.965032e+11     0
-2.790325e+05     1.027760e-06     5.211040e+04     8.049980e+04     1.958137e+11     0
-2.755003e+05     1.018657e-06     5.505395e+04     7.950333e+04     1.951180e+11     0
-2.719300e+05     1.009521e-06     5.802916e+04     7.850691e+04     1.944162e+11     0
-2.683209e+05     1.000353e-06     6.103678e+04     7.751053e+04     1.937080e+11     0
-2.646719e+05     9.911510e-07     6.407759e+04     7.651420e+04     1.929933e+11     0
-2.609822e+05     9.819154e-07     6.715238e+04     7.551791e+04     1.922719e+11     0
-2.572507e+05     9.726454e-07     7.026198e+04     7.452167e+04     1.915438e+11     0
-2.534763e+05     9.633404e-07     7.340726e+04     7.352549e+04     1.908087e+11     0
-2.496581e+05     9.539997e-07     7.658912e+04     7.252935e+04     1.900665e+11     0
-2.457948e+05     9.446229e-07     7.980849e+04     7.153327e+04     1.893170e+11     0
-2.418854e+05     9.352091e-07     8.306633e+04     7.053724e+04     1.885601e+11     0
-2.379286e+05     9.257579e-07     8.636366e+04     6.954127e+04     1.877955e+11     0
-2.339232e+05     9.162684e-07     8.970153e+04     6.854536e+04     1.870231e+11     0
-2.298678e+05     9.067400e-07     9.308103e+04     6.754950e+04     1.862427e+11     0
-2.257611e+05     8.971720e-07     9.650330e+04     6.655371e+04     1.854541e+11     0
-2.216016e+05     8.875636e-07     9.996952e+04     6.555797e+04     1.846571e+11     0
-2.173879e+05     8.779140e-07     1.034809e+05     6.456230e+04     1.838514e+11     0
-2.131184e+05     8.682225e-07     1.070388e+05     6.356670e+04     1.830369e+11     0
-2.087915e+05     8.584881e-07     1.106446e+05     6.257117e+04     1.822133e+11     0
-2.044055e+05     8.487101e-07     1.142996e+05     6.157571e+04     1.813803e+11     0
-1.999586e+05     8.388876e-07     1.180053e+05     6.058032e+04     1.805376e+11     0
-1.954490e+05     8.290196e-07     1.217633e+05     5.958500e+04     1.796851e+11     0
-1.908748e+05     8.191051e-07     1.255752e+05     5.858976e+04     1.788225e+11     0
-1.862338e+05     8.091432e-07     1.294427e+05     5.759461e+04     1.779494e+11     0
-1.815239e+05     7.991329e-07     1.333676e+05     5.659953e+04     1.770655e+11     0
-1.767430e+05     7.890730e-07     1.373517e+05     5.560455e+04     1.761705e+11     0
-1.718885e+05     7.789624e-07     1.413971e+05     5.460965e+04     1.752641e+11     0
-1.669582e+05     7.688000e-07     1.455057e+05     5.361484e+04     1.743459e+11     0
-1.619492e+05     7.585846e-07     1.496798e+05     5.262013e+04     1.734155e+11     0
-1.568590e+05     7.483149e-07     1.539217e+05     5.162552e+04     1.724726e+11     0
-1.516845e+05     7.379896e-07     1.582337e+05     5.063101e+04     1.715167e+11     0
-1.464228e+05     7.276073e-07     1.626185e+05     4.963661e+04     1.705474e+11     0
-1.410705e+05     7.171665e-07     1.670788e+05     4.864232e+04     1.695642e+11     0
-1.356242e+05     7.066658e-07     1.716173e+05     4.764814e+04     1.685667e+11     0
-1.300803e+05     6.961036e-07     1.762372e+05     4.665409e+04     1.675544e+11     0
-1.244350e+05     6.854782e-07     1.809417e+05     4.566016e+04     1.665266e+11     0
-1.186841e+05     6.747880e-07     1.857341e+05     4.466636e+04     1.654829e+11     0
-1.128232e+05     6.640311e-07     1.906182e+05     4.367270e+04     1.644226e+11     0
-1.068478e+05     6.532055e-07     1.955977e+05     4.267918e+04     1.633451e+11     0
-1.007529e+05     6.423094e-07     2.006768e+05     4.168581e+04     1.622497e+11     0
-9.453317e+04     6.313405e-07     2.058599e+05     4.069260e+04     1.611357e+11     0
-8.818299e+04     6.202967e-07     2.111517e+05     3.969955e+04     1.600022e+11     0
-8.169631e+04     6.091757e-07     2.165573e+05     3.870667e+04     1.588486e+11     0
-7.506662e+04     5.979748e-07     2.220820e+05     3.771397e+04     1.576738e+11     0
-6.828694e+04     5.866916e-07     2.277317e+05     3.672147e+04     1.564769e+11     0
-6.134975e+04     5.753231e-07     2.335127e+05     3.572916e+04     1.552569e+11     0
-5.424695e+04     5.638666e-07     2.394317e+05     3.473707e+04     1.540128e+11     0
-4.696974e+04     5.523188e-07     2.454961e+05     3.374520e+04     1.527433e+11     0
-3.950862e+04     5.406763e-07     2.517137e+05     3.275356e+04     1.514472e+11     0
-3.185326e+04     5.289357e-07     2.580931e+05     3.176218e+04     1.501231e+11     0
-2.399241e+04     5.170930e-07     2.646438e+05     3.077106e+04     1.487694e+11     0
-1.591379e+04     5.051443e-07     2.713760e+05     2.978022e+04     1.473847e+11     0
-7.603960e+03     4.930851e-07     2.783009e+05     2.878968e+04     1.459671e+11     0
 0.000000e+00     4.822651e-07     2.846375e+05     2.790963e+04     1.446799e+11     0
 9.518367e+02     4.809107e-07     2.854307e+05     2.779947e+04     1.445147e+11     0
 9.769856e+03     4.686160e-07     2.927791e+05     2.680959e+04     1.430254e+11     0
 1.886806e+04     4.561956e-07     3.003609e+05     2.582009e+04     1.414968e+11     0
 2.826637e+04     4.436434e-07     3.081928e+05     2.483098e+04     1.399265e+11     0
 3.798696e+04     4.309530e-07     3.162933e+05     2.384230e+04     1.383115e+11     0
 4.805463e+04     4.181174e-07     3.246830e+05     2.285408e+04     1.366487e+11     0
 5.849721e+04     4.051288e-07     3.333852e+05     2.186636e+04     1.349347e+11     0
 6.934614e+04     3.919786e-07     3.424260e+05     2.087919e+04     1.331653e+11     0
 8.063705e+04     3.786577e-07     3.518351e+05     1.989261e+04     1.313364e+11     0
 9.241062e+04     3.651556e-07     3.616464e+05     1.890668e+04     1.294427e+11     0
 1.047135e+05     3.514607e-07     3.718988e+05     1.792148e+04     1.274785e+11     0
 1.175998e+05     3.375603e-07     3.826374e+05     1.693706e+04     1.254373e+11     0
 1.311324e+05     3.234397e-07     3.939145e+05     1.595354e+04     1.233115e+11     0
 1.453852e+05     3.090827e-07     4.057918e+05     1.497100e+04     1.210922e+11     0
 1.604459e+05     2.944705e-07     4.183425e+05     1.398958e+04     1.187690e+11     0
 1.764199e+05     2.795817e-07     4.316541e+05     1.300943e+04     1.163295e+11     0
 1.934348e+05     2.643913e-07     4.458332e+05     1.203074e+04     1.137588e+11     0
 2.116480e+05     2.488703e-07     4.610109e+05     1.105372e+04     1.110390e+11     0
 2.312563e+05     2.329842e-07     4.773511e+05     1.007867e+04     1.081476e+11     0
 2.525107e+05     2.166916e-07     4.950631e+05     9.105950e+03     1.050566e+11     0
 2.757385e+05     1.999422e-07     5.144196e+05     8.136030e+03     1.017298e+11     0
 3.013779e+05     1.826733e-07     5.357858e+05     7.169545e+03     9.811977e+10     0
 3.300357e+05     1.648056e-07     5.596673e+05     6.207369e+03     9.416196e+10     0
 3.625871e+05     1.462356e-07     5.867936e+05     5.250751e+03     8.976527e+10     0
 4.003647e+05     1.268235e-07     6.182751e+05     4.301575e+03     8.479454e+10     0
 4.455488e+05     1.063719e-07     6.559290e+05     3.362860e+03     7.903541e+10     0
 5.020966e+05     8.458523e-08     7.030541e+05     2.439914e+03     7.211408e+10     0
 5.784505e+05     6.097964e-08     7.666935e+05     1.543458e+03     6.327758e+10     0
 6.987103e+05     3.464758e-08     8.671020e+05     7.017560e+02     5.063528e+10     0
 8.718117e+05     1.269842e-08     1.015292e+06     1.867265e+02     3.676174e+10     0
 1.017499e+06     4.747191e-09     1.139708e+06     5.064212e+01     2.666952e+10     0
 1.140563e+06     1.797204e-09     1.244650e+06     1.390787e+01     1.934654e+10     0
 1.244092e+06     6.926399e-10     1.332762e+06     3.889864e+00     1.403999e+10     0
 1.328964e+06     2.806719e-10     1.404653e+06     1.148511e+00     1.023001e+10     0
 1.392080e+06     1.311365e-10     1.457637e+06     4.025653e-01     7.674549e+09     0
 1.427968e+06     8.119968e-11     1.487571e+06     2.060491e-01     6.343901e+09     0
 1.440600e+06     6.783613e-11     1.498098e+06     1.601929e-01     5.903674e+09     0
 1.442619e+06     6.587386e-11     1.499781e+06     1.537433e-01     5.834762e+09     0
 1.498380e+06     6.587386e-11     1.499880e+06     1.534595e-01     5.823993e+09     0
 1.499880e+06     2.203980e-03     1.499880e+06     1.534595e-01     6.980295e+07     1
 3.719941e+06     2.203980e-03     1.499980e+06     1.534596e-01     6.980295e+07     1
 3.719941e+06     2.203980e-03     1.499980e+06     1.736935e-01     6.980295e+07     1
 3.719941e+06     2.203980e-03     1.499980e+06     1.000172e+03     6.980295e+07     1
 3.719942e+06     2.203980e-03     1.499980e+06     2.000170e+03     6.980295e+07     1
 3.719943e+06     2.203980e-03     1.499980e+06     3.000168e+03     6.980295e+07     1
 3.719943e+06     2.203981e-03     1.499980e+06     4.000166e+03     6.980295e+07     1
 3.719944e+06     2.203981e-03     1.499981e+06     5.000164e+03     6.980295e+07     1
 3.719945e+06     2.203981e-03     1.499981e+06     6.000162e+03     6.980295e+07     1
 3.719945e+06     2.203981e-03     1.499981e+06     7.000160e+03     6.980295e+07     1
 3.719946e+06     2.203981e-03     1.499981e+06     8.000158e+03     6.980295e+07     1
 3.719947e+06     2.203982e-03     1.499981e+06     9.000156e+03     6.980295e+07     1
 3.719947e+06     2.203982e-03     1.499982e+06     1.000015e+04     6.980295e+07     1
 3.719948e+06     2.203982e-03     1.499982e+06     1.100015e+04     6.980295e+07     1
 3.719949e+06     2.203982e-03     1.499982e+06     1.200015e+04     6.980295e+07     1
 3.719949e+06     2.203982e-03     1.499982e+06     1.300015e+04     6.980295e+07     1
 3.719950e+06     2.203983e-03     1.499982e+06     1.400015e+04     6.980295e+07     1
 3.719951e+06     2.203983e-03     1.499983e+06     1.500014e+04     6.980295e+07     1
 3.719951e+06     2.203983e-03     1.499983e+06     1.600014e+04     6.980295e+07     1
 3.719952e+06     2.203983e-03     1.499983e+06     1.700014e+04     6.980295e+07     1
 3.719953e+06     2.203983e-03     1.499983e+06     1.800014e+04     6.980295e+07     1
 3.719953e+06     2.203984e-03     1.499983e+06     1.900014e+04     6.980295e+07     1
 3.719954e+06     2.203984e-03     1.499984e+06     2.000013e+04     6.980295e+07     1
 3.719955e+06     2.203984e-03     1.499984e+06     2.100013e+04     6.980296e+07     1
 3.719955e+06     2.203984e-03     1.499984e+06     2.200013e+04     6.980296e+07     1
 3.719956e+06     2.203984e-03     1.499984e+06     2.300013e+04     6.980296e+07     1
 3.719957e+06     2.203985e-03     1.499984e+06     2.400013e+04     6.980296e+07     1
 3.719957e+06     2.203985e-03     1.499985e+06     2.500013e+04     6.980296e+07     1
 3.719958e+06     2.203985e-03     1.499985e+06     2.600012e+04     6.980296e+07     1
 3.719959e+06     2.203985e-03     1.499985e+06     2.700012e+04     6.980296e+07     1
 3.719959e+06     2.203985e-03     1.499985e+06     2.800012e+04     6.980296e+07     1
 3.719960e+06     2.203986e-03     1.499985e+06     2.900012e+04     6.980296e+07     1
 3.719961e+06     2.203986e-03     1.499986e+06     3.000012e+04     6.980297e+07     1
 3.719961e+06     2.203986e-03     1.499986e+06     3.100011e+04     6.980297e+07     1
 3.719962e+06     2.203986e-03     1.499986e+06     3.200011e+04     6.980297e+07     1
 3.719963e+06     2.203986e-03     1.499986e+06     3.300011e+04     6.980297e+07     1
 3.719963e+06     2.203987e-03     1.499987e+06     3.400011e+04     6.980297e+07     1
 3.719964e+06     2.203987e-03     1.499987e+06     3.500011e+04     6.980297e+07     1
 3.719965e+06     2.203987e-03     1.499987e+06     3.600010e+04     6.980297e+07     1
 3.719965e+06     2.203987e-03     1.499987e+06     3.700010e+04     6.980297e+07     1
 3.719966e+06     2.203987e-03     1.499987e+06     3.800010e+04     6.980298e+07     1
 3.719966e+06     2.203988e-03     1.499988e+06     3.900010e+04     6.980298e+07     1
 3.719967e+06     2.203988e-03     1.499988e+06     4.000010e+04     6.980298e+07     1
 3.719968e+06     2.203988e-03     1.499988e+06     4.100009e+04     6.980298e+07     1
 3.719968e+06     2.203988e-03     1.499988e+06     4.200009e+04     6.980298e+07     1
 3.719969e+06     2.203988e-03     1.499988e+06     4.300009e+04     6.980298e+07     1
 3.719970e+06     2.203989e-03     1.499989e+06     4.400009e+04     6.980299e+07     1
 3.719970e+06     2.203989e-03     1.499989e+06     4.500009e+04     6.980299e+07     1
 3.719971e+06     2.203989e-03     1.499989e+06     4.600008e+04     6.980299e+07     1
 3.719972e+06     2.203989e-03     1.499989e+06     4.700008e+04     6.980299e+07     1
 3.719972e+06     2.203989e-03     1.499989e+06     4.800008e+04     6.980299e+07     1
 3.719973e+06     2.203990e-03     1.499990e+06     4.900008e+04     6.980300e+07     1
 3.719974e+06     2.203990e-03     1.499990e+06     5.000008e+04     6.980300e+07     1
 3.719974e+06     2.203990e-03     1.499990e+06     5.100007e+04     6.980300e+07     1
 3.719975e+06     2.203990e-03     1.499990e+06     5.200007e+04     6.980300e+07     1
 3.719976e+06     2.203990e-03     1.499990e+06     5.300007e+04     6.980300e+07     1
 3.719976e+06     2.203991e-03     1.499991e+06     5.400007e+04     6.980301e+07     1
 3.719977e+06     2.203991e-03     1.499991e+06     5.500007e+04     6.980301e+07     1
 3.719978e+06     2.203991e-03     1.499991e+06     5.600006e+04     6.980301e+07     1
 3.719978e+06     2.203991e-03     1.499991e+06     5.700006e+04     6.980301e+07     1
 3.719979e+06     2.203991e-03     1.499991e+06     5.800006e+04     6.980302e+07     1
 3.719980e+06     2.203992e-03     1.499992e+06     5.900006e+04     6.980302e+07     1
 3.719980e+06     2.203992e-03     1.499992e+06     6.000006e+04     6.980302e+07     1
 3.719981e+06     2.203992e-03     1.499992e+06     6.100006e+04     6.980302e+07     1
 3.719982e+06     2.203992e-03     1.499992e+06     6.200005e+04     6.980303e+07     1
 3.719982e+06     2.203992e-03     1.499992e+06     6.300005e+04     6.980303e+07     1
 3.719983e+06     2.203993e-03     1.499993e+06     6.400005e+04     6.980303e+07     1
 3.719984e+06     2.203993e-03     1.499993e+06     6.500005e+04     6.980303e+07     1
 3.719984e+06     2.203993e-03     1.499993e+06     6.600005e+04     6.980304e+07     1
 3.719985e+06     2.203993e-03     1.499993e+06     6.700004e+04     6.980304e+07     1
 3.719986e+06     2.203994e-03     1.499993e+06     6.800004e+04     6.980304e+07     1
 3.719986e+06     2.203994e-03     1.499994e+06     6.900004e+04     6.980305e+07     1
 3.719987e+06     2.203994e-03     1.499994e+06     7.000004e+04     6.980305e+07     1
 3.719988e+06     2.203994e-03     1.499994e+06     7.100004e+04     6.980305e+07     1
 3.719988e+06     2.203994e-03     1.499994e+06     7.200003e+04     6.980305e+07     1
 3.719989e+06     2.203995e-03     1.499994e+06     7.300003e+04     6.980306e+07     1
 3.719990e+06     2.203995e-03     1.499995e+06     7.400003e+04     6.980306e+07     1
 3.719990e+06     2.203995e-03     1.499995e+06     7.500003e+04     6.980306e+07     1
 3.719991e+06     2.203995e-03     1.499995e+06     7.600003e+04     6.980307e+07     1
 3.719992e+06     2.203995e-03     1.499995e+06     7.700002e+04     6.980307e+07     1
 3.719992e+06     2.203996e-03     1.499996e+06     7.800002e+04     6.980307e+07     1
 3.719993e+06     2.203996e-03     1.499996e+06     7.900002e+04     6.980308e+07     1
 3.719993e+06     2.203996e-03     1.499996e+06     8.000002e+04     6.980308e+07     1
 3.719994e+06     2.203996e-03     1.499996e+06     8.100002e+04     6.980308e+07     1
 3.719995e+06     2.203996e-03     1.499996e+06     8.200001e+04     6.980309e+07     1
 3.719995e+06     2.203997e-03     1.499997e+06     8.300001e+04     6.980309e+07     1
 3.719996e+06     2.203997e-03     1.499997e+06     8.400001e+04     6.980309e+07     1
 3.719997e+06     2.203997e-03     1.499997e+06     8.500001e+04     6.980310e+07     1
 3.719997e+06     2.203997e-03     1.499997e+06     8.600001e+04     6.980310e+07     1
 3.719998e+06     2.203997e-03     1.499997e+06     8.700000e+04     6.980310e+07     1
 3.719999e+06     2.203998e-03     1.499998e+06     8.800000e+04     6.980311e+07     1
 3.719999e+06     2.203998e-03     1.499998e+06     8.900000e+04     6.980311e+07     1
 3.720000e+06     2.203998e-03     1.499998e+06     9.000000e+04     6.980312e+07     1
 3.720001e+06     2.203998e-03     1.499998e+06     9.100000e+04     6.980312e+07     1
 3.720001e+06     2.203998e-03     1.499998e+06     9.199999e+04     6.980312e+07     1
 3.720002e+06     2.203999e-03     1.499999e+06     9.299999e+04     6.980313e+07     1
 3.720003e+06     2.203999e-03     1.499999e+06     9.399999e+04     6.980313e+07     1
 3.720003e+06     2.203999e-03     1.499999e+06     9.499999e+04     6.980313e+07     1
 3.720004e+06     2.203999e-03     1.499999e+06     9.599999e+04     6.980314e+07     1
 3.720005e+06     2.203999e-03     1.499999e+06     9.699999e+04     6.980314e+07     1
 3.720005e+06     2.204000e-03     1.500000e+06     9.799998e+04     6.980315e+07     1
 3.720006e+06     2.204000e-03     1.500000e+06     9.899998e+04     6.980315e+07     1
 3.720007e+06     2.204000e-03     1.500000e+06     1.000000e+05     6.980316e+07     1
 7.781578e+06     2.204000e-03     1.500000e+06     1.000000e+05     6.980316e+07     1
