## One-Dimensional Riemann Problem.
## Initial State: 1.000000e+00 0.000000e+00 5.000000e+02, id 0 (left) | (right) 1.000000e+00 0.000000e+00 2.000000e-01, id 1.
## xi(x/t) | density | velocity | pressure | internal energy per mass | material id
-7.071999e+01     1.000000e+00     0.000000e+00     5.000000e+02     1.250000e+03     0
-2.645751e+01     1.000000e+00     0.000000e+00     5.000000e+02     1.250000e+03     0
-2.633031e+01     9.960000e-01     1.059998e-01     4.972022e+02     1.247998e+03     0
-2.621066e+01     9.922489e-01     2.057129e-01     4.945827e+02     1.246115e+03     0
-2.609045e+01     9.884920e-01     3.058840e-01     4.919630e+02     1.244226e+03     0
-2.596970e+01     9.847294e-01     4.065126e-01     4.893433e+02     1.242329e+03     0
-2.584839e+01     9.809611e-01     5.076031e-01     4.867237e+02     1.240426e+03     0
-2.572652e+01     9.771870e-01     6.091603e-01     4.841041e+02     1.238514e+03     0
-2.560409e+01     9.734071e-01     7.111887e-01     4.814845e+02     1.236596e+03     0
-2.548108e+01     9.696213e-01     8.136932e-01     4.788649e+02     1.234670e+03     0
-2.535750e+01     9.658297e-01     9.166786e-01     4.762454e+02     1.232736e+03     0
-2.523333e+01     9.620321e-01     1.020150e+00     4.736258e+02     1.230795e+03     0
-2.510858e+01     9.582285e-01     1.124112e+00     4.710063e+02     1.228847e+03     0
-2.498323e+01     9.544190e-01     1.228570e+00     4.683868e+02     1.226890e+03     0
-2.485728e+01     9.506033e-01     1.333528e+00     4.657674e+02     1.224926e+03     0
-2.473072e+01     9.467816e-01     1.438994e+00     4.631480e+02     1.222953e+03     0
-2.460355e+01     9.429537e-01     1.544970e+00     4.605285e+02     1.220973e+03     0
-2.447576e+01     9.391197e-01     1.651464e+00     4.579092e+02     1.218985e+03     0
-2.434734e+01     9.352794e-01     1.758480e+00     4.552898e+02     1.216989e+03     0
-2.421828e+01     9.314328e-01     1.866024e+00     4.526704e+02     1.214984e+03     0
-2.408859e+01     9.275799e-01     1.974101e+00     4.500511e+02     1.212971e+03     0
-2.395825e+01     9.237206e-01     2.082719e+00     4.474318e+02     1.210950e+03     0
-2.382726e+01     9.198549e-01     2.191881e+00     4.448126e+02     1.208921e+03     0
-2.369560e+01     9.159827e-01     2.301595e+00     4.421933e+02     1.206882e+03     0
-2.356327e+01     9.121040e-01     2.411866e+00     4.395741e+02     1.204836e+03     0
-2.343027e+01     9.082188e-01     2.522701e+00     4.369549e+02     1.202780e+03     0
-2.329659e+01     9.043269e-01     2.634105e+00     4.343358e+02     1.200716e+03     0
-2.316221e+01     9.004283e-01     2.746086e+00     4.317167e+02     1.198642e+03     0
-2.302713e+01     8.965230e-01     2.858649e+00     4.290976e+02     1.196560e+03     0
-2.289135e+01     8.926110e-01     2.971802e+00     4.264785e+02     1.194469e+03     0
-2.275485e+01     8.886921e-01     3.085550e+00     4.238594e+02     1.192369e+03     0
-2.261763e+01     8.847663e-01     3.199902e+00     4.212404e+02     1.190259e+03     0
-2.247968e+01     8.808336e-01     3.314863e+00     4.186214e+02     1.188140e+03     0
-2.234098e+01     8.768939e-01     3.430441e+00     4.160025e+02     1.186011e+03     0
-2.220154e+01     8.729472e-01     3.546643e+00     4.133835e+02     1.183873e+03     0
-2.206134e+01     8.689933e-01     3.663476e+00     4.107646e+02     1.181725e+03     0
-2.192038e+01     8.650323e-01     3.780948e+00     4.081457e+02     1.179568e+03     0
-2.177863e+01     8.610641e-01     3.899067e+00     4.055269e+02     1.177400e+03     0
-2.163610e+01     8.570886e-01     4.017840e+00     4.029081e+02     1.175223e+03     0
-2.149278e+01     8.531057e-01     4.137275e+00     4.002893e+02     1.173035e+03     0
-2.134866e+01     8.491154e-01     4.257381e+00     3.976706e+02     1.170838e+03     0
-2.120372e+01     8.451177e-01     4.378164e+00     3.950518e+02     1.168630e+03     0
-2.105795e+01     8.411125e-01     4.499635e+00     3.924332e+02     1.166411e+03     0
-2.091135e+01     8.370996e-01     4.621800e+00     3.898145e+02     1.164182e+03     0
-2.076391e+01     8.330791e-01     4.744670e+00     3.871959e+02     1.161942e+03     0
-2.061561e+01     8.290509e-01     4.868252e+00     3.845773e+02     1.159692e+03     0
-2.046645e+01     8.250149e-01     4.992556e+00     3.819588e+02     1.157430e+03     0
-2.031640e+01     8.209710e-01     5.117591e+00     3.793402e+02     1.155157e+03     0
-2.016547e+01     8.169192e-01     5.243366e+00     3.767218e+02     1.152873e+03     0
-2.001364e+01     8.128593e-01     5.369891e+00     3.741033e+02     1.150578e+03     0
-1.986090e+01     8.087915e-01     5.497176e+00     3.714849e+02     1.148272e+03     0
-1.970724e+01     8.047154e-01     5.625230e+00     3.688666e+02     1.145953e+03     0
-1.955264e+01     8.006312e-01     5.754064e+00     3.662482e+02     1.143623e+03     0
-1.939709e+01     7.965387e-01     5.883688e+00     3.636299e+02     1.141281e+03     0
-1.924058e+01     7.924378e-01     6.014112e+00     3.610117e+02     1.138928e+03     0
-1.908310e+01     7.883284e-01     6.145348e+00     3.583935e+02     1.136561e+03     0
-1.892463e+01     7.842106e-01     6.277406e+00     3.557753e+02     1.134183e+03     0
-1.876516e+01     7.800841e-01     6.410298e+00     3.531571e+02     1.131792e+03     0
-1.860467e+01     7.759489e-01     6.544035e+00     3.505390e+02     1.129388e+03     0
-1.844316e+01     7.718050e-01     6.678628e+00     3.479210e+02     1.126972e+03     0
-1.828060e+01     7.676522e-01     6.814091e+00     3.453030e+02     1.124542e+03     0
-1.811699e+01     7.634905e-01     6.950434e+00     3.426850e+02     1.122100e+03     0
-1.795231e+01     7.593198e-01     7.087671e+00     3.400671e+02     1.119644e+03     0
-1.778654e+01     7.551399e-01     7.225814e+00     3.374492e+02     1.117174e+03     0
-1.761966e+01     7.509508e-01     7.364876e+00     3.348314e+02     1.114691e+03     0
-1.745167e+01     7.467525e-01     7.504871e+00     3.322136e+02     1.112194e+03     0
-1.728254e+01     7.425447e-01     7.645812e+00     3.295958e+02     1.109683e+03     0
-1.711226e+01     7.383275e-01     7.787714e+00     3.269781e+02     1.107158e+03     0
-1.694081e+01     7.341007e-01     7.930590e+00     3.243605e+02     1.104618e+03     0
-1.676817e+01     7.298642e-01     8.074455e+00     3.217428e+02     1.102064e+03     0
-1.659432e+01     7.256179e-01     8.219324e+00     3.191253e+02     1.099495e+03     0
-1.641926e+01     7.213618e-01     8.365212e+00     3.165078e+02     1.096911e+03     0
-1.624295e+01     7.170957e-01     8.512136e+00     3.138903e+02     1.094311e+03     0
-1.606538e+01     7.128194e-01     8.660110e+00     3.112729e+02     1.091696e+03     0
-1.588653e+01     7.085330e-01     8.809152e+00     3.086556e+02     1.089066e+03     0
-1.570638e+01     7.042363e-01     8.959278e+00     3.060383e+02     1.086419e+03     0
-1.552491e+01     6.999291e-01     9.110505e+00     3.034210e+02     1.083756e+03     0
-1.534209e+01     6.956114e-01     9.262852e+00     3.008038e+02     1.081077e+03     0
-1.515791e+01     6.912830e-01     9.416336e+00     2.981867e+02     1.078381e+03     0
-1.497234e+01     6.869439e-01     9.570975e+00     2.955696e+02     1.075669e+03     0
-1.478537e+01     6.825939e-01     9.726789e+00     2.929526e+02     1.072939e+03     0
-1.459696e+01     6.782329e-01     9.883797e+00     2.903356e+02     1.070192e+03     0
-1.440709e+01     6.738607e-01     1.004202e+01     2.877187e+02     1.067427e+03     0
-1.421574e+01     6.694772e-01     1.020148e+01     2.851019e+02     1.064644e+03     0
-1.402289e+01     6.650823e-01     1.036219e+01     2.824851e+02     1.061843e+03     0
-1.382850e+01     6.606759e-01     1.052418e+01     2.798684e+02     1.059023e+03     0
-1.363255e+01     6.562579e-01     1.068747e+01     2.772518e+02     1.056185e+03     0
-1.343502e+01     6.518280e-01     1.085208e+01     2.746352e+02     1.053327e+03     0
-1.323587e+01     6.473861e-01     1.101803e+01     2.720187e+02     1.050450e+03     0
-1.303508e+01     6.429321e-01     1.118536e+01     2.694022e+02     1.047553e+03     0
-1.283262e+01     6.384659e-01     1.135408e+01     2.667858e+02     1.044636e+03     0
-1.262845e+01     6.339873e-01     1.152422e+01     2.641695e+02     1.041699e+03     0
-1.242254e+01     6.294960e-01     1.169581e+01     2.615533e+02     1.038741e+03     0
-1.221487e+01     6.249921e-01     1.186887e+01     2.589371e+02     1.035762e+03     0
-1.200540e+01     6.204753e-01     1.204343e+01     2.563211e+02     1.032761e+03     0
-1.179410e+01     6.159454e-01     1.221951e+01     2.537051e+02     1.029738e+03     0
-1.158092e+01     6.114023e-01     1.239716e+01     2.510891e+02     1.026694e+03     0
-1.136584e+01     6.068458e-01     1.257639e+01     2.484733e+02     1.023626e+03     0
-1.114882e+01     6.022757e-01     1.275724e+01     2.458575e+02     1.020536e+03     0
-1.092982e+01     5.976918e-01     1.293975e+01     2.432418e+02     1.017422e+03     0
-1.070879e+01     5.930940e-01     1.312393e+01     2.406262e+02     1.014284e+03     0
-1.048571e+01     5.884820e-01     1.330984e+01     2.380107e+02     1.011121e+03     0
-1.045356e+01     5.878199e-01     1.333663e+01     2.376359e+02     1.010666e+03     0
-1.045351e+01     5.878187e-01     1.333667e+01     2.376352e+02     1.010665e+03     0
 1.332334e+01     5.878187e-01     1.333667e+01     2.376352e+02     1.010665e+03     0
 1.333667e+01     3.985929e+00     1.333667e+01     2.376352e+02     8.938310e+01     1
 1.780318e+01     3.985929e+00     1.333667e+01     2.376352e+02     8.938310e+01     1
 1.780496e+01     1.000000e+00     0.000000e+00     2.000000e-01     2.998501e-01     1
 6.206743e+01     1.000000e+00     0.000000e+00     2.000000e-01     2.998501e-01     1
